time,x,y,phi,delta,v,theta,cost
0.04,-0.3,0.0,2.0943951023931953,-0.03304528963028759,0.04,0.0,0.556159
0.08,-0.3008,0.0013856406460551018,2.094289318958716,-0.0655200959813777,0.08,0.0,0.555225
0.12,-0.30239970683539547,0.004157091176154651,2.0938693892693863,-0.09726244519181615,0.12,0.0,0.553216
0.16,-0.30479752115542946,0.008315274251325822,2.092932714287894,-0.12812174584842895,0.16,0.0,0.550172
0.2,-0.3079894123589967,0.013862510549212394,2.091283723222125,-0.15802993819212346,0.2,0.0,0.546239
0.24000000000000002,-0.31196783676520784,0.020803125741258647,2.088733983513518,-0.18694865445447648,0.24000000000000002,0.0,0.54148
0.28,-0.3167206944424366,0.02914400962128045,2.0851021599339425,-0.21477703456850572,0.28,0.0,0.53582
0.32,-0.32223031718538747,0.03889511505760708,2.080215787503824,-0.24140222785314047,0.32,0.0,0.529271
0.36,-0.3284724996131562,0.05006987047052128,2.0739129800569436,-0.2667241667975396,0.36,0.0,0.521882
0.39999999999999997,-0.33541557951152756,0.06268548149515389,2.0660438243856567,-0.29065333112962966,0.39999999999999997,0.0,0.513697
0.43999999999999995,-0.34301957034121255,0.0767630993143045,2.0564718424398283,-0.31316968035092424,0.43999999999999995,0.0,0.504828
0.4799999999999999,-0.3512353535617208,0.09232783208019595,2.0450731676177147,-0.3342778455270548,0.4799999999999999,0.0,0.49532
0.5199999999999999,-0.36000390192890475,0.10940859785730195,2.031736400370496,-0.35401215784796464,0.5199999999999999,0.0,0.485217
0.5599999999999999,-0.3692555394606597,0.128037800818809,2.0163617912891025,-0.37233861303649407,0.5599999999999999,0.0,0.474469
0.6,-0.37890922726918214,0.14825082413783736,1.9988648807830058,-0.38923609189767105,0.6,0.0,0.463111
0.64,-0.3888719730535977,0.17008528535022155,1.9791770945788643,-0.404692475991505,0.64,0.0,0.451179
0.68,-0.39903834168058505,0.19358007091936877,1.9572463154217834,-0.41872396415482965,0.68,0.0,0.438717
0.7200000000000001,-0.4092900920922218,0.21877414985664104,1.9330359813781728,-0.43137208637069036,0.7200000000000001,0.0,0.425767
0.7600000000000001,-0.41949593178049754,0.24570518838576605,1.9065236948660085,-0.4427457362268934,0.7600000000000001,0.0,0.412389
0.8000000000000002,-0.42951139468965416,0.2744079844641154,1.8776960337684627,-0.452892703492989,0.8000000000000002,0.0,0.398567
0.8400000000000002,-0.43917874387253497,0.30491277687082186,1.8465518570571624,-0.4618368677301086,0.8400000000000002,0.0,0.384323
0.8800000000000002,-0.4483271502975969,0.33724336084145073,1.8131038219054765,-0.4696010077545257,0.8799999997401204,0.0,0.369698
0.9200000000000003,-0.45677315618828923,0.371415059420283,1.7773783524529978,-0.476209801384676,0.9197172405748877,0.0,0.354178
0.9600000000000003,-0.4643190978425594,0.4074215372920139,1.7394269319503646,-0.4817261806503229,0.9557326152832637,0.0,0.331947
1.0000000000000002,-0.4707352189911598,0.4451085791031243,1.6994538467715814,-0.48620758678038806,0.9882613981172588,0.0,0.310541
1.0400000000000003,-0.47580709010349387,0.4843123170503374,1.6576680525041625,-0.48975668808815304,1.0176442471534202,0.0,0.290161
1.0800000000000003,-0.47933882451087695,0.524864586457842,1.6142695428331582,-0.4924006434879947,1.044058812228434,0.0,0.27053
1.1200000000000003,-0.4811537964647044,0.566587481398555,1.569460564945731,-0.4941643095901772,1.0676782240868317,0.0,0.251678
1.1600000000000004,-0.4810967499281119,0.609294572261729,1.5234437058107166,-0.49506932441624674,1.0886675091141822,0.0,0.233628
1.2000000000000004,-0.4790354700567816,0.6527924600027843,1.476420461662182,-0.4951336430111083,1.1071789791011921,0.0,0.216402
1.2400000000000004,-0.47486203287130613,0.6968825369916101,1.4285902863443334,-0.49437518951817705,1.1233691263017247,0.0,0.200037
1.2800000000000005,-0.468493553095899,0.7413637192559662,1.380148697900045,-0.4928102545979849,1.1373903242068708,0.0,0.184555
1.3200000000000005,-0.4598723696669413,0.7860350299110536,1.3312861042585313,-0.49048898724648615,1.1495397050528806,0.0,0.170055
1.3600000000000005,-0.44896430194954673,0.8307040405589472,1.2821762583823386,-0.4874115133022072,1.1599482067858327,0.0,0.156428
1.4000000000000006,-0.43575807622332285,0.8751828371922767,1.2329881624098546,-0.4835778544219496,1.1687401435706413,0.0,0.143679
1.4400000000000006,-0.4202643251846458,0.9192903117953543,1.1838854684965296,-0.47898838282892914,1.176033037238765,0.0,0.131806
1.4800000000000006,-0.40251425013742664,0.9628542964994805,1.1350259322779226,-0.4736439061986708,1.1819249512036418,0.0,0.120799
1.5200000000000007,-0.3825582073637102,1.0057130284132687,1.0865614722575823,-0.4675474203849494,1.1865166969442282,0.0,0.110645
1.5600000000000007,-0.3604637800924065,1.0477172100974412,1.0386371788712168,-0.46070934682676573,1.1899395438295224,0.0,0.101327
1.6000000000000008,-0.3363130008399701,1.0887326907145305,0.9913887206496118,-0.4531451668380769,1.1923555252789368,0.0,0.0928129
1.6400000000000008,-0.3101990638818981,1.1286426019448375,0.9449402681304797,-0.44485679787462756,1.1938498242928959,4.779594667990119e-12,0.0850602
1.6800000000000008,-0.28222519071388436,1.1673453959618405,0.8994089940852897,-0.4358485593498177,1.1945021814661125,1.9593013046222077e-10,0.0780319
1.7200000000000009,-0.25250249754600806,1.204755264302854,0.8549048196447833,-0.4261272294538135,1.194387118005226,7.782613670240525e-10,0.0716883
1.760000000000001,-0.22114790905190362,1.2408022713993705,0.8115302245530034,-0.41570436666795435,1.193555310521667,2.5311947003874225e-09,0.0659867
1.800000000000001,-0.18828268066700088,1.275431675235523,0.769380527185838,-0.4045923767316248,1.1920724460643877,2.7559478878301237e-08,0.0608847
1.840000000000001,-0.1540300634944625,1.3086042085047358,0.7285432654947791,-0.39281404300651435,1.1900207602669852,0.0014485733807630653,0.0563685
1.880000000000001,-0.11851293887212205,1.3402960515301485,0.6890966235234247,-0.38038621658775473,1.1874538080468278,0.0044015293152363825,0.0525768
1.920000000000001,-0.08185288013408674,1.370497286063122,0.6511113422043243,-0.36732675754163824,1.184416333080412,0.008720195287711703,0.0494183
1.960000000000001,-0.04416898135602051,1.399210890033935,0.6146511282226161,-0.35365562863633593,1.180947873546025,0.014277607229873552,0.0467926
2.000000000000001,-0.005576800830513193,1.4264517455700458,0.5797728460670493,-0.3393979509600689,1.1770709070020178,0.020959165313749084,0.0446138
2.040000000000001,0.0338120932979267,1.452245320186904,0.54652674771772,-0.32458036636968335,1.1728077939040926,0.02866055163893541,0.0428076
2.080000000000001,0.07389091381806692,1.476626729908696,0.5149565871763315,-0.309228309782433,1.1681891249688388,0.03728610986025919,0.04131
2.120000000000001,0.11455857267301718,1.4996399186049658,0.48509983737040935,-0.2933687068978569,1.1632424191380997,0.046749148843753474,0.0400669
2.160000000000001,0.15572006386043497,1.5213365617628312,0.4569879734378266,-0.2770298850111221,1.157992427411805,0.05697114099373955,0.039032
2.200000000000001,0.19728669369663596,1.5417749967119456,0.4306467626544558,-0.2602414868491502,1.1524613917124467,0.06788094075279345,0.038166
2.240000000000001,0.2391761733465072,1.5610191934913253,0.4060965566935925,-0.24303757964673406,1.1466606789688238,0.07941501897785289,0.0374356
2.280000000000001,0.2813122739287824,1.579137641770071,0.3833524415363628,-0.22545614726718835,1.1405932259482505,0.09151651222306532,0.0368123
2.320000000000001,0.3236244470316063,1.5962023614760352,0.3624243385948041,-0.2075292429075113,1.1342785049078397,0.10413150281392304,0.0362717
2.360000000000001,0.36604827987397487,1.6122883420080487,0.34331757181941236,-0.18928973800036433,1.127734239640115,0.11721079810780949,0.0357934
2.4000000000000012,0.4085252070341407,1.6274727380592795,0.3260331585179789,-0.17077125883588629,1.1209764992402673,0.13070942139687675,0.0353597
2.4400000000000013,0.45100215985745457,1.6418341369397615,0.31056808492494875,-0.15200811455975766,1.1140197833085952,0.14458615059044494,0.0349562
2.4800000000000013,0.49343116814668103,1.6554518966585052,0.2969155650048083,-0.13303747171114277,1.106872139237902,0.158803782503363,0.0345705
2.5200000000000014,0.5357687377438773,1.6684054943362276,0.28506513121317023,-0.11390415296252332,1.099524794325978,0.1733302411326947,0.0341927
2.5600000000000014,0.5779748035193235,1.6807738268470735,0.2750023395534774,-0.09464206425600827,1.0919917588467982,0.18813236161908453,0.0338147
2.6000000000000014,0.6200131911422374,1.6926350058900086,0.26670969702036956,-0.07528533059920522,1.0842857545338094,0.20317932762206956,0.0334297
2.6400000000000015,0.661851150898898,1.7040659323343514,0.26016686609845346,-0.055868194648772324,1.0764182464939593,0.21844240593822445,0.0330323
2.6800000000000015,0.7034588954984947,1.7151419232855456,0.2553508508551845,-0.03642489837198851,1.0683994779956028,0.2338947056996051,0.0326183
2.7200000000000015,0.7448091491966136,1.7259363862379697,0.25223616584723973,-0.016989561861683437,1.0602384825917954,0.24951096391029493,0.0321847
2.7600000000000016,0.7858767134138102,1.7365205344425312,0.2507949881985115,0.0023918675743244827,1.0519173859239588,0.26527164048927676,0.0317312
2.8000000000000016,0.8266370576247952,1.7469628827749977,0.2509962723492633,0.02168782821124357,1.0434455498822959,0.28115337002144364,0.0312556
2.8400000000000016,0.8670670441328949,1.757329269602892,0.25280696167794303,0.040867922930758666,1.0348326587642749,0.2971336681168734,0.0307571
2.8800000000000017,0.9071446291456161,1.7676826743655936,0.25619216343552204,0.059902375635723704,1.0260873632201568,0.3131910500980186,0.0302356
2.9200000000000017,0.9468485415999595,1.7780830483470422,0.2611152590037432,0.07876217422949597,1.0172173147021422,0.32930490515575433,0.0296913
2.9600000000000017,0.9861579959770068,1.78858716663972,0.26753800541568545,0.09741921775930465,1.008229209057968,0.34545538367149387,0.0291252
3.0000000000000018,1.025052440710852,1.799248498153284,0.2754206299701517,0.11583906511940782,0.9991112627076818,0.3616266590351523,0.0285421
3.040000000000002,1.0635106667162366,1.8101168999193995,0.2847211566942261,0.13399312583882192,0.9898602861814622,0.3778015185121543,0.0279431
3.080000000000002,1.1015110077216999,1.8212385680192535,0.29539587640395865,0.1518593161772525,0.9804844440954994,0.39396074577627915,0.0273271
3.120000000000002,1.139031675411759,1.8326560584735243,0.3073999506866525,0.16941676370943093,0.9709911029535709,0.4100856560758976,0.0266958
3.160000000000002,1.176050653631412,1.8444082160114768,0.3206874947662687,0.1866459219127921,0.9613868699919011,0.4261580579065461,0.0260511
3.200000000000002,1.2125456272133526,1.856530115422129,0.33521166086933846,0.20352867768527227,0.9516776376678133,0.44216022896741536,0.0253947
3.240000000000002,1.2484939443091732,1.869053015231579,0.3509247232685512,0.2200463794946834,0.9418627633536574,0.45807616270134976,0.0247311
3.280000000000002,1.2838723903010616,1.8820042430956285,0.3677778972116294,0.23617637193825797,0.9319238662176225,0.473894101261263,0.0240701
3.320000000000002,1.3186565824248189,1.8954069042559782,0.38572062706486804,0.25190757273799247,0.9218692400193681,0.4895964507916146,0.0234038
3.360000000000002,1.352822072506359,1.909280185071935,0.40470190434897885,0.2672303572757267,0.9117065731990797,0.5051662399950333,0.0227342
3.400000000000002,1.3863444222846264,1.9236393725951397,0.42467036635961447,0.28213661040224414,0.901442963409127,0.5205871684307948,0.0220632
3.440000000000002,1.4191992994860227,1.9384958900245002,0.4455743983505754,0.296619764525828,0.8910849354547973,0.5358436622275253,0.0213931
3.480000000000002,1.4513625918566413,1.9538573483990582,0.4673622389487585,0.3106748205328526,0.8806384560454072,0.5509209356489728,0.0207262
3.5200000000000022,1.4828105360133845,1.9697276147087337,0.48998208793722964,0.32429137581325745,0.8700849118368543,0.565810826491684,0.0200782
3.5600000000000023,1.5135190096967117,1.9861064440359548,0.5133810286162412,0.33746685057860604,0.859425221501948,0.5805010696298327,0.0194417
3.6000000000000023,1.5434644433222933,2.00298986025252,0.5375060778847166,0.3502025617295954,0.8486682786641544,0.5949782481582897,0.0188142
3.6400000000000023,1.5726242857506076,2.020370428283891,0.5623047124827304,0.3625010844421042,0.8378223278517076,0.6092300796793578,0.018198
3.6800000000000024,1.6009771528144834,2.0382374071592677,0.5877249781305754,0.3743662160546184,0.8268949493993815,0.623245446255721,0.0175955
3.7200000000000024,1.6285029728308165,2.0565769176264523,0.6137155945228565,0.3858029247952884,0.8158930493415247,0.6370144085692515,0.0170088
3.7600000000000025,1.6551831266244226,2.07537212292705,0.6402260547417112,0.39681406497087013,0.8048108472621097,0.650531212061058,0.0164483
3.8000000000000025,1.6810001946823248,2.094603134254769,0.6672060715468698,0.40740147573211694,0.793634038217304,0.6637933012578051,0.0159219
3.8400000000000025,1.7059378775485776,2.1142469615765913,0.6946051938032268,0.4175746466417922,0.7823723911877632,0.6767926720248204,0.0154154
3.8800000000000026,1.729981948354611,2.1342782658941597,0.7223741970535463,0.4273437346383207,0.7710348140872555,0.6895225374660291,0.0149303
3.9200000000000026,1.7531203361921728,2.154669599924426,0.7504651518497788,0.4367194796937254,0.759629347765789,0.7019772598142866,0.0144679
3.9600000000000026,1.7753431932252708,2.175391651436422,0.7788314799064208,0.44571311063897234,0.7481631739716345,0.7141522716292874,0.014029
4.000000000000003,1.7966429453595656,2.196413487104063,0.8074279976668436,0.4543362213544844,0.7366425628071562,0.7260440081143928,0.0136144
4.040000000000003,1.8170143245313453,2.217702792756952,0.8362109427107042,0.46259076010063416,0.7250382143132545,0.7376588706415258,0.0132502
4.080000000000003,1.8364534552741543,2.239225080170405,0.8651358861402451,0.4704898873612023,0.7133590968804276,0.7489936272757134,0.0129084
4.120000000000003,1.8549590370988704,2.260944964219175,0.8941600334272432,0.4780470311092704,0.7016143349356782,0.7600455996814952,0.0125876
4.160000000000003,1.8725323417433946,2.282826445975453,0.9232422882711068,0.4852754507244583,0.6898121088954036,0.7708128809138954,0.0122872
4.200000000000003,1.8891771604600647,2.3048331541076372,0.9523432349385662,0.4921881254907091,0.6779597070968,0.7812942409514275,0.0120061
4.240000000000003,1.904899736790352,2.326928573919289,0.9814251078298359,0.49879763702059676,0.6660635878348776,0.7914890389669791,0.011743
4.280000000000003,1.9197086864339408,2.349076263083552,1.0104517492257619,0.5051081115004753,0.6541051655068324,0.8014032850302732,0.0115155
4.320000000000003,1.9336143895570352,2.3712392305906507,1.039386939856873,0.5111272597137837,0.6420787550116971,0.8110399378105754,0.011312
4.360000000000003,1.9466292968408374,2.3933805131328576,1.0681951957008582,0.516867505706049,0.6299942512125448,0.8203980608265705,0.0111184
4.400000000000003,1.9587681929322636,2.4154638917733404,1.0968427908676142,0.5223403895565478,0.6178606795412342,0.8294771911776511,0.0109327
4.440000000000003,1.9700480449334894,2.437454067983355,1.1252976792994318,0.5275564756637191,0.6056862732976797,0.8382772819753234,0.0107533
4.480000000000003,1.9804878452110055,2.4593168205278895,1.1535294101581517,0.5325252749342809,0.5934785555097193,0.8467986544476046,0.0105784
4.520000000000003,1.9901084503452382,2.4810191436802853,1.1815090395083019,0.5372511259416336,0.5812332283104136,0.8550445804445962,0.0104151
4.560000000000003,1.998932247868477,2.5025289531256596,1.2092082517590261,0.5417307785531388,0.5689275618859606,0.8630229303561913,0.0102771
4.600000000000003,2.0069828018697344,2.52381449501095,1.236598005918486,0.5459730783378265,0.5565734044107405,0.870733210766016,0.010135
4.640000000000003,2.014285310983867,2.54484570248541,1.263650955106479,0.5499857734266149,0.5441818034550963,0.8781753485145259,0.00998761
4.680000000000003,2.0208664027663943,2.565594277551871,1.290341359009065,0.5537755948825838,0.5317630804970357,0.8853496696910521,0.00983391
4.720000000000003,2.026753931918058,2.5860337530474857,1.3166450038175523,0.557348381611457,0.5193269085260517,0.8922568841524748,0.00967311
4.760000000000003,2.03197678361495,2.6061395363155664,1.3425391328227092,0.5607092409705237,0.5068823736803624,0.898898078211704,0.00950463
4.800000000000003,2.036564682759086,2.6258889354618637,1.368002388897662,0.5638492003737414,0.4943955364404793,0.9052835645394408,0.00936345
4.840000000000003,2.040547667616345,2.645259504528117,1.393011870523798,0.5667747279676745,0.48187670232907415,0.9114143431183489,0.00921326
4.8800000000000034,2.043956451594742,2.6642307575648747,1.4175462403480528,0.5694934219036778,0.46933993649663874,0.9172909254802825,0.00905035
4.9200000000000035,2.0468222586883016,2.6827843316487963,1.4415859851874862,0.5720126343316987,0.456798562002515,0.9229143401590199,0.00887499
4.9600000000000035,2.04917661870596,2.700903958325507,1.4651133669754224,0.5743396226850832,0.4442652385024125,0.9282861238408279,0.0086876
5.0000000000000036,2.0510511753155716,2.7185754212231825,1.4881123807207035,0.5764816771733955,0.4317520357630913,0.9334083144880531,0.00848876
5.040000000000004,2.0524775072815564,2.7357865016581733,1.5105687175142528,0.578439007741228,0.41923498583373997,0.938289375862097,0.00830843
5.080000000000004,2.053486877634389,2.752525495918464,1.5324675302771613,0.5802185460216222,0.4067132742636847,0.942934010136668,0.00812854
5.120000000000004,2.054110278182161,2.7687820783298043,1.5537949512771856,0.5818312140272427,0.3942049286808821,0.9473440406403955,0.00793396
5.160000000000004,2.054378346308625,2.784547996658708,1.5745392398225704,0.5832875841560582,0.38172708059086025,0.9515219430179813,0.00772585
5.200000000000004,2.054321195591548,2.7998169729271356,1.5946906849011275,0.5845979056870787,0.3692960259636539,0.9554708256773109,0.00750552
5.240000000000004,2.053968265517792,2.8145845972462706,1.614241508649365,0.5857721192726213,0.35692727317470263,0.9591944079048101,0.00727436
5.280000000000004,2.0533481898128896,2.8288482164033315,1.6331857701611356,0.5868164306673892,0.3445993712995303,0.9627014019761878,0.00706199
5.320000000000004,2.0524887730861785,2.8426053732901995,1.6515172067520485,0.5877398431467992,0.33230900360741766,0.9659985091288422,0.00685532
5.360000000000004,2.051416966920622,2.8558544513618678,1.6692302653388724,0.5885533509987276,0.3200782250979796,0.9690896308950463,0.00663545
5.400000000000004,2.0501587386855658,2.86859560413544,1.686321481890125,0.5892671292816557,0.3079277572828048,0.9719793461972943,0.0064043
5.440000000000004,2.04873896559615,2.880830613342748,1.7027893289193128,0.5898906020557734,0.2958770380962941,0.9746728583144664,0.00616383
5.480000000000004,2.047181349702364,2.8925627481614264,1.7186340701589822,0.590432503282774,0.2839442643210459,0.977175939011572,0.00591598
5.520000000000004,2.0455083522779383,2.903796626921818,1.7338576220371424,0.5908995391161445,0.27209891690032,0.979498554121706,0.00569604
5.560000000000004,2.0437414545654105,2.914536207239446,1.748460827800365,0.591299769818478,0.2603480194638377,0.9816478933740007,0.00547841
